June 29, 2026   16:21:48
Cyclic Voltammetry
File: d:\hnu\Data Source:  Experiment
Instrument Model:  CHI660E
Header: 
Note: 

Init E (V) = 0
High E (V) = 0.7
Low E (V) = 0
Init P/N = P
Scan Rate (V/s) = 0.1
Segment = 2
Sample Interval (V) = 0.001
Quiet Time (sec) = 2
Sensitivity (A/V) = 0.1

Results:

Channel 1:
Segment 1:

Segment 2:

Potential/V, Current/A

0.000, 4.916e-5
0.001, 5.014e-5
0.002, 4.965e-5
0.003, 4.955e-5
0.004, 5.073e-5
0.005, 4.916e-5
0.006, 5.034e-5
0.007, 5.152e-5
0.008, 5.093e-5
0.009, 5.064e-5
0.010, 4.926e-5
0.011, 4.965e-5
0.012, 4.935e-5
0.013, 5.024e-5
0.014, 5.024e-5
0.015, 5.064e-5
0.016, 5.123e-5
0.017, 5.073e-5
0.018, 5.172e-5
0.019, 5.044e-5
0.020, 5.172e-5
0.021, 5.093e-5
0.022, 5.123e-5
0.023, 5.152e-5
0.024, 5.201e-5
0.025, 5.142e-5
0.026, 5.142e-5
0.027, 5.142e-5
0.028, 5.162e-5
0.029, 5.103e-5
0.030, 5.044e-5
0.031, 5.132e-5
0.032, 5.221e-5
0.033, 5.162e-5
0.034, 5.073e-5
0.035, 5.270e-5
0.036, 5.132e-5
0.037, 5.093e-5
0.038, 5.162e-5
0.039, 5.142e-5
0.040, 5.221e-5
0.041, 5.142e-5
0.042, 5.211e-5
0.043, 5.349e-5
0.044, 5.211e-5
0.045, 5.211e-5
0.046, 5.192e-5
0.047, 5.152e-5
0.048, 5.231e-5
0.049, 5.162e-5
0.050, 5.261e-5
0.051, 5.221e-5
0.052, 5.300e-5
0.053, 5.300e-5
0.054, 5.330e-5
0.055, 5.359e-5
0.056, 5.280e-5
0.057, 5.280e-5
0.058, 5.339e-5
0.059, 5.300e-5
0.060, 5.241e-5
0.061, 5.359e-5
0.062, 5.270e-5
0.063, 5.211e-5
0.064, 5.290e-5
0.065, 5.251e-5
0.066, 5.290e-5
0.067, 5.398e-5
0.068, 5.330e-5
0.069, 5.349e-5
0.070, 5.408e-5
0.071, 5.221e-5
0.072, 5.359e-5
0.073, 5.438e-5
0.074, 5.320e-5
0.075, 5.349e-5
0.076, 5.398e-5
0.077, 5.349e-5
0.078, 5.418e-5
0.079, 5.349e-5
0.080, 5.300e-5
0.081, 5.339e-5
0.082, 5.458e-5
0.083, 5.320e-5
0.084, 5.448e-5
0.085, 5.467e-5
0.086, 5.398e-5
0.087, 5.379e-5
0.088, 5.379e-5
0.089, 5.389e-5
0.090, 5.379e-5
0.091, 5.467e-5
0.092, 5.477e-5
0.093, 5.556e-5
0.094, 5.458e-5
0.095, 5.458e-5
0.096, 5.576e-5
0.097, 5.359e-5
0.098, 5.320e-5
0.099, 5.359e-5
0.100, 5.487e-5
0.101, 5.458e-5
0.102, 5.477e-5
0.103, 5.566e-5
0.104, 5.359e-5
0.105, 5.487e-5
0.106, 5.596e-5
0.107, 5.487e-5
0.108, 5.527e-5
0.109, 5.448e-5
0.110, 5.517e-5
0.111, 5.586e-5
0.112, 5.517e-5
0.113, 5.497e-5
0.114, 5.467e-5
0.115, 5.458e-5
0.116, 5.596e-5
0.117, 5.586e-5
0.118, 5.458e-5
0.119, 5.497e-5
0.120, 5.477e-5
0.121, 5.615e-5
0.122, 5.556e-5
0.123, 5.664e-5
0.124, 5.527e-5
0.125, 5.635e-5
0.126, 5.605e-5
0.127, 5.615e-5
0.128, 5.586e-5
0.129, 5.625e-5
0.130, 5.655e-5
0.131, 5.605e-5
0.132, 5.517e-5
0.133, 5.458e-5
0.134, 5.546e-5
0.135, 5.704e-5
0.136, 5.684e-5
0.137, 5.645e-5
0.138, 5.596e-5
0.139, 5.625e-5
0.140, 5.733e-5
0.141, 5.655e-5
0.142, 5.694e-5
0.143, 5.635e-5
0.144, 5.536e-5
0.145, 5.605e-5
0.146, 5.773e-5
0.147, 5.694e-5
0.148, 5.674e-5
0.149, 5.714e-5
0.150, 5.664e-5
0.151, 5.615e-5
0.152, 5.605e-5
0.153, 5.733e-5
0.154, 5.773e-5
0.155, 5.773e-5
0.156, 5.743e-5
0.157, 5.763e-5
0.158, 5.802e-5
0.159, 5.704e-5
0.160, 5.724e-5
0.161, 5.753e-5
0.162, 5.753e-5
0.163, 5.733e-5
0.164, 5.812e-5
0.165, 5.694e-5
0.166, 5.950e-5
0.167, 5.861e-5
0.168, 5.783e-5
0.169, 5.763e-5
0.170, 5.852e-5
0.171, 5.743e-5
0.172, 5.842e-5
0.173, 5.793e-5
0.174, 5.901e-5
0.175, 5.852e-5
0.176, 5.793e-5
0.177, 5.724e-5
0.178, 5.714e-5
0.179, 5.842e-5
0.180, 5.802e-5
0.181, 5.822e-5
0.182, 5.921e-5
0.183, 5.911e-5
0.184, 5.861e-5
0.185, 5.930e-5
0.186, 5.802e-5
0.187, 5.822e-5
0.188, 5.852e-5
0.189, 5.861e-5
0.190, 5.911e-5
0.191, 5.950e-5
0.192, 5.960e-5
0.193, 6.019e-5
0.194, 5.881e-5
0.195, 5.891e-5
0.196, 5.901e-5
0.197, 5.970e-5
0.198, 5.940e-5
0.199, 5.930e-5
0.200, 5.881e-5
0.201, 5.960e-5
0.202, 5.921e-5
0.203, 5.940e-5
0.204, 5.940e-5
0.205, 6.029e-5
0.206, 5.999e-5
0.207, 5.999e-5
0.208, 5.950e-5
0.209, 6.039e-5
0.210, 6.068e-5
0.211, 6.088e-5
0.212, 6.127e-5
0.213, 6.049e-5
0.214, 6.059e-5
0.215, 6.078e-5
0.216, 6.098e-5
0.217, 6.147e-5
0.218, 6.108e-5
0.219, 6.127e-5
0.220, 6.127e-5
0.221, 6.049e-5
0.222, 6.088e-5
0.223, 6.029e-5
0.224, 6.059e-5
0.225, 6.029e-5
0.226, 5.881e-5
0.227, 6.078e-5
0.228, 6.157e-5
0.229, 6.098e-5
0.230, 6.127e-5
0.231, 6.206e-5
0.232, 6.167e-5
0.233, 6.187e-5
0.234, 6.226e-5
0.235, 6.118e-5
0.236, 6.187e-5
0.237, 6.216e-5
0.238, 6.196e-5
0.239, 6.118e-5
0.240, 6.118e-5
0.241, 6.127e-5
0.242, 6.216e-5
0.243, 6.206e-5
0.244, 6.177e-5
0.245, 6.157e-5
0.246, 6.196e-5
0.247, 6.226e-5
0.248, 6.236e-5
0.249, 6.275e-5
0.250, 6.127e-5
0.251, 6.246e-5
0.252, 6.206e-5
0.253, 6.167e-5
0.254, 6.256e-5
0.255, 6.167e-5
0.256, 6.216e-5
0.257, 6.256e-5
0.258, 6.265e-5
0.259, 6.265e-5
0.260, 6.315e-5
0.261, 6.324e-5
0.262, 6.295e-5
0.263, 6.295e-5
0.264, 6.246e-5
0.265, 6.334e-5
0.266, 6.167e-5
0.267, 6.177e-5
0.268, 6.265e-5
0.269, 6.236e-5
0.270, 6.305e-5
0.271, 6.246e-5
0.272, 6.315e-5
0.273, 6.305e-5
0.274, 6.344e-5
0.275, 6.305e-5
0.276, 6.305e-5
0.277, 6.285e-5
0.278, 6.374e-5
0.279, 6.364e-5
0.280, 6.275e-5
0.281, 6.285e-5
0.282, 6.403e-5
0.283, 6.403e-5
0.284, 6.265e-5
0.285, 6.256e-5
0.286, 6.295e-5
0.287, 6.216e-5
0.288, 6.285e-5
0.289, 6.384e-5
0.290, 6.384e-5
0.291, 6.305e-5
0.292, 6.315e-5
0.293, 6.118e-5
0.294, 6.246e-5
0.295, 6.364e-5
0.296, 6.344e-5
0.297, 6.295e-5
0.298, 6.374e-5
0.299, 6.344e-5
0.300, 6.423e-5
0.301, 6.374e-5
0.302, 6.423e-5
0.303, 6.344e-5
0.304, 6.384e-5
0.305, 6.413e-5
0.306, 6.196e-5
0.307, 6.315e-5
0.308, 6.433e-5
0.309, 6.433e-5
0.310, 6.531e-5
0.311, 6.324e-5
0.312, 6.315e-5
0.313, 6.393e-5
0.314, 6.462e-5
0.315, 6.384e-5
0.316, 6.433e-5
0.317, 6.315e-5
0.318, 6.433e-5
0.319, 6.433e-5
0.320, 6.453e-5
0.321, 6.354e-5
0.322, 6.413e-5
0.323, 6.512e-5
0.324, 6.413e-5
0.325, 6.502e-5
0.326, 6.364e-5
0.327, 6.522e-5
0.328, 6.374e-5
0.329, 6.354e-5
0.330, 6.502e-5
0.331, 6.344e-5
0.332, 6.502e-5
0.333, 6.433e-5
0.334, 6.453e-5
0.335, 6.472e-5
0.336, 6.482e-5
0.337, 6.393e-5
0.338, 6.472e-5
0.339, 6.502e-5
0.340, 6.413e-5
0.341, 6.590e-5
0.342, 6.453e-5
0.343, 6.620e-5
0.344, 6.531e-5
0.345, 6.502e-5
0.346, 6.502e-5
0.347, 6.492e-5
0.348, 6.531e-5
0.349, 6.531e-5
0.350, 6.590e-5
0.351, 6.512e-5
0.352, 6.600e-5
0.353, 6.630e-5
0.354, 6.630e-5
0.355, 6.590e-5
0.356, 6.571e-5
0.357, 6.492e-5
0.358, 6.502e-5
0.359, 6.482e-5
0.360, 6.620e-5
0.361, 6.610e-5
0.362, 6.640e-5
0.363, 6.561e-5
0.364, 6.620e-5
0.365, 6.512e-5
0.366, 6.630e-5
0.367, 6.630e-5
0.368, 6.581e-5
0.369, 6.571e-5
0.370, 6.659e-5
0.371, 6.640e-5
0.372, 6.659e-5
0.373, 6.679e-5
0.374, 6.590e-5
0.375, 6.561e-5
0.376, 6.699e-5
0.377, 6.659e-5
0.378, 6.719e-5
0.379, 6.659e-5
0.380, 6.679e-5
0.381, 6.768e-5
0.382, 6.630e-5
0.383, 6.620e-5
0.384, 6.728e-5
0.385, 6.778e-5
0.386, 6.758e-5
0.387, 6.748e-5
0.388, 6.689e-5
0.389, 6.640e-5
0.390, 6.778e-5
0.391, 6.748e-5
0.392, 6.600e-5
0.393, 6.650e-5
0.394, 6.738e-5
0.395, 6.689e-5
0.396, 6.827e-5
0.397, 6.778e-5
0.398, 6.728e-5
0.399, 6.935e-5
0.400, 6.788e-5
0.401, 6.709e-5
0.402, 6.856e-5
0.403, 6.827e-5
0.404, 6.768e-5
0.405, 6.876e-5
0.406, 6.807e-5
0.407, 6.837e-5
0.408, 6.827e-5
0.409, 6.709e-5
0.410, 6.985e-5
0.411, 6.886e-5
0.412, 6.886e-5
0.413, 7.014e-5
0.414, 6.935e-5
0.415, 6.916e-5
0.416, 6.935e-5
0.417, 6.916e-5
0.418, 6.975e-5
0.419, 6.945e-5
0.420, 6.994e-5
0.421, 6.896e-5
0.422, 7.093e-5
0.423, 7.063e-5
0.424, 7.113e-5
0.425, 7.053e-5
0.426, 7.103e-5
0.427, 7.053e-5
0.428, 7.024e-5
0.429, 7.132e-5
0.430, 7.113e-5
0.431, 7.182e-5
0.432, 7.211e-5
0.433, 7.073e-5
0.434, 7.201e-5
0.435, 7.093e-5
0.436, 7.172e-5
0.437, 7.182e-5
0.438, 7.191e-5
0.439, 7.201e-5
0.440, 7.280e-5
0.441, 7.280e-5
0.442, 7.349e-5
0.443, 7.349e-5
0.444, 7.191e-5
0.445, 7.388e-5
0.446, 7.251e-5
0.447, 7.319e-5
0.448, 7.507e-5
0.449, 7.369e-5
0.450, 7.408e-5
0.451, 7.487e-5
0.452, 7.457e-5
0.453, 7.457e-5
0.454, 7.546e-5
0.455, 7.526e-5
0.456, 7.536e-5
0.457, 7.487e-5
0.458, 7.585e-5
0.459, 7.585e-5
0.460, 7.605e-5
0.461, 7.684e-5
0.462, 7.546e-5
0.463, 7.664e-5
0.464, 7.842e-5
0.465, 7.625e-5
0.466, 7.753e-5
0.467, 7.753e-5
0.468, 7.832e-5
0.469, 7.822e-5
0.470, 7.743e-5
0.471, 7.714e-5
0.472, 7.881e-5
0.473, 7.911e-5
0.474, 8.029e-5
0.475, 7.980e-5
0.476, 7.980e-5
0.477, 8.039e-5
0.478, 8.048e-5
0.479, 8.039e-5
0.480, 8.058e-5
0.481, 8.216e-5
0.482, 8.127e-5
0.483, 8.216e-5
0.484, 8.265e-5
0.485, 8.216e-5
0.486, 8.374e-5
0.487, 8.305e-5
0.488, 8.443e-5
0.489, 8.423e-5
0.490, 8.344e-5
0.491, 8.393e-5
0.492, 8.521e-5
0.493, 8.492e-5
0.494, 8.630e-5
0.495, 8.659e-5
0.496, 8.679e-5
0.497, 8.659e-5
0.498, 8.758e-5
0.499, 8.827e-5
0.500, 8.945e-5
0.501, 8.955e-5
0.502, 8.984e-5
0.503, 9.152e-5
0.504, 9.132e-5
0.505, 9.152e-5
0.506, 9.152e-5
0.507, 9.349e-5
0.508, 9.497e-5
0.509, 9.437e-5
0.510, 9.625e-5
0.511, 9.595e-5
0.512, 9.802e-5
0.513, 9.713e-5
0.514, 9.910e-5
0.515, 9.999e-5
0.516, 1.008e-4
0.517, 1.015e-4
0.518, 1.024e-4
0.519, 1.054e-4
0.520, 1.038e-4
0.521, 1.058e-4
0.522, 1.068e-4
0.523, 1.058e-4
0.524, 1.056e-4
0.525, 1.080e-4
0.526, 1.084e-4
0.527, 1.075e-4
0.528, 1.071e-4
0.529, 1.080e-4
0.530, 1.078e-4
0.531, 1.079e-4
0.532, 1.081e-4
0.533, 1.082e-4
0.534, 1.074e-4
0.535, 1.080e-4
0.536, 1.077e-4
0.537, 1.068e-4
0.538, 1.070e-4
0.539, 1.070e-4
0.540, 1.070e-4
0.541, 1.067e-4
0.542, 1.061e-4
0.543, 1.059e-4
0.544, 1.066e-4
0.545, 1.066e-4
0.546, 1.055e-4
0.547, 1.058e-4
0.548, 1.044e-4
0.549, 1.050e-4
0.550, 1.036e-4
0.551, 1.037e-4
0.552, 1.052e-4
0.553, 1.046e-4
0.554, 1.042e-4
0.555, 1.037e-4
0.556, 1.029e-4
0.557, 1.025e-4
0.558, 1.025e-4
0.559, 1.031e-4
0.560, 1.036e-4
0.561, 1.029e-4
0.562, 1.033e-4
0.563, 1.030e-4
0.564, 1.029e-4
0.565, 1.028e-4
0.566, 1.030e-4
0.567, 1.009e-4
0.568, 1.023e-4
0.569, 1.022e-4
0.570, 1.026e-4
0.571, 1.017e-4
0.572, 1.017e-4
0.573, 1.015e-4
0.574, 1.024e-4
0.575, 1.013e-4
0.576, 1.012e-4
0.577, 1.006e-4
0.578, 1.024e-4
0.579, 1.007e-4
0.580, 1.009e-4
0.581, 1.004e-4
0.582, 1.007e-4
0.583, 1.021e-4
0.584, 1.018e-4
0.585, 1.009e-4
0.586, 1.003e-4
0.587, 1.009e-4
0.588, 1.008e-4
0.589, 1.018e-4
0.590, 1.008e-4
0.591, 1.015e-4
0.592, 9.989e-5
0.593, 1.003e-4
0.594, 1.005e-4
0.595, 1.004e-4
0.596, 1.011e-4
0.597, 1.002e-4
0.598, 1.010e-4
0.599, 9.999e-5
0.600, 1.007e-4
0.601, 1.004e-4
0.602, 1.006e-4
0.603, 9.979e-5
0.604, 1.003e-4
0.605, 1.006e-4
0.606, 1.006e-4
0.607, 1.014e-4
0.608, 1.005e-4
0.609, 1.011e-4
0.610, 1.011e-4
0.611, 1.011e-4
0.612, 1.013e-4
0.613, 1.011e-4
0.614, 1.032e-4
0.615, 1.033e-4
0.616, 1.030e-4
0.617, 1.028e-4
0.618, 1.035e-4
0.619, 1.046e-4
0.620, 1.033e-4
0.621, 1.039e-4
0.622, 1.038e-4
0.623, 1.049e-4
0.624, 1.033e-4
0.625, 1.048e-4
0.626, 1.050e-4
0.627, 1.066e-4
0.628, 1.060e-4
0.629, 1.063e-4
0.630, 1.071e-4
0.631, 1.070e-4
0.632, 1.074e-4
0.633, 1.093e-4
0.634, 1.083e-4
0.635, 1.107e-4
0.636, 1.098e-4
0.637, 1.105e-4
0.638, 1.101e-4
0.639, 1.117e-4
0.640, 1.130e-4
0.641, 1.138e-4
0.642, 1.134e-4
0.643, 1.149e-4
0.644, 1.169e-4
0.645, 1.165e-4
0.646, 1.181e-4
0.647, 1.202e-4
0.648, 1.184e-4
0.649, 1.211e-4
0.650, 1.224e-4
0.651, 1.228e-4
0.652, 1.254e-4
0.653, 1.261e-4
0.654, 1.281e-4
0.655, 1.313e-4
0.656, 1.305e-4
0.657, 1.317e-4
0.658, 1.334e-4
0.659, 1.358e-4
0.660, 1.371e-4
0.661, 1.395e-4
0.662, 1.415e-4
0.663, 1.436e-4
0.664, 1.455e-4
0.665, 1.474e-4
0.666, 1.506e-4
0.667, 1.526e-4
0.668, 1.548e-4
0.669, 1.582e-4
0.670, 1.616e-4
0.671, 1.624e-4
0.672, 1.662e-4
0.673, 1.682e-4
0.674, 1.717e-4
0.675, 1.740e-4
0.676, 1.779e-4
0.677, 1.815e-4
0.678, 1.861e-4
0.679, 1.896e-4
0.680, 1.934e-4
0.681, 1.990e-4
0.682, 2.024e-4
0.683, 2.049e-4
0.684, 2.115e-4
0.685, 2.150e-4
0.686, 2.216e-4
0.687, 2.261e-4
0.688, 2.325e-4
0.689, 2.386e-4
0.690, 2.444e-4
0.691, 2.498e-4
0.692, 2.559e-4
0.693, 2.645e-4
0.694, 2.696e-4
0.695, 2.781e-4
0.696, 2.843e-4
0.697, 2.919e-4
0.698, 2.998e-4
0.699, 3.076e-4
0.700, 2.982e-4
0.699, 2.816e-4
0.698, 2.707e-4
0.697, 2.606e-4
0.696, 2.510e-4
0.695, 2.416e-4
0.694, 2.330e-4
0.693, 2.246e-4
0.692, 2.172e-4
0.691, 2.089e-4
0.690, 2.018e-4
0.689, 1.957e-4
0.688, 1.901e-4
0.687, 1.840e-4
0.686, 1.775e-4
0.685, 1.719e-4
0.684, 1.658e-4
0.683, 1.612e-4
0.682, 1.562e-4
0.681, 1.520e-4
0.680, 1.468e-4
0.679, 1.423e-4
0.678, 1.380e-4
0.677, 1.341e-4
0.676, 1.309e-4
0.675, 1.260e-4
0.674, 1.219e-4
0.673, 1.195e-4
0.672, 1.154e-4
0.671, 1.119e-4
0.670, 1.079e-4
0.669, 1.060e-4
0.668, 1.040e-4
0.667, 1.008e-4
0.666, 9.723e-5
0.665, 9.457e-5
0.664, 9.004e-5
0.663, 8.896e-5
0.662, 8.817e-5
0.661, 8.620e-5
0.660, 8.285e-5
0.659, 8.157e-5
0.658, 8.039e-5
0.657, 7.763e-5
0.656, 7.546e-5
0.655, 7.349e-5
0.654, 7.300e-5
0.653, 7.014e-5
0.652, 6.896e-5
0.651, 6.797e-5
0.650, 6.689e-5
0.649, 6.581e-5
0.648, 6.571e-5
0.647, 6.354e-5
0.646, 6.157e-5
0.645, 6.167e-5
0.644, 6.068e-5
0.643, 5.852e-5
0.642, 5.832e-5
0.641, 5.704e-5
0.640, 5.625e-5
0.639, 5.477e-5
0.638, 5.290e-5
0.637, 5.379e-5
0.636, 5.211e-5
0.635, 5.152e-5
0.634, 5.201e-5
0.633, 5.123e-5
0.632, 5.044e-5
0.631, 4.876e-5
0.630, 4.867e-5
0.629, 4.729e-5
0.628, 4.748e-5
0.627, 4.699e-5
0.626, 4.630e-5
0.625, 4.591e-5
0.624, 4.532e-5
0.623, 4.581e-5
0.622, 4.492e-5
0.621, 4.453e-5
0.620, 4.325e-5
0.619, 4.236e-5
0.618, 4.344e-5
0.617, 4.216e-5
0.616, 4.197e-5
0.615, 4.098e-5
0.614, 4.069e-5
0.613, 3.931e-5
0.612, 4.009e-5
0.611, 3.901e-5
0.610, 3.783e-5
0.609, 3.940e-5
0.608, 3.901e-5
0.607, 3.891e-5
0.606, 3.812e-5
0.605, 3.822e-5
0.604, 3.793e-5
0.603, 3.714e-5
0.602, 3.665e-5
0.601, 3.507e-5
0.600, 3.596e-5
0.599, 3.576e-5
0.598, 3.556e-5
0.597, 3.409e-5
0.596, 3.546e-5
0.595, 3.566e-5
0.594, 3.537e-5
0.593, 3.389e-5
0.592, 3.438e-5
0.591, 3.389e-5
0.590, 3.399e-5
0.589, 3.428e-5
0.588, 3.369e-5
0.587, 3.330e-5
0.586, 3.280e-5
0.585, 3.231e-5
0.584, 3.290e-5
0.583, 3.172e-5
0.582, 3.202e-5
0.581, 3.123e-5
0.580, 3.192e-5
0.579, 3.083e-5
0.578, 3.192e-5
0.577, 3.143e-5
0.576, 3.054e-5
0.575, 2.995e-5
0.574, 2.995e-5
0.573, 3.034e-5
0.572, 2.975e-5
0.571, 2.955e-5
0.570, 2.916e-5
0.569, 3.044e-5
0.568, 2.877e-5
0.567, 2.916e-5
0.566, 2.857e-5
0.565, 2.778e-5
0.564, 2.886e-5
0.563, 2.699e-5
0.562, 2.827e-5
0.561, 2.709e-5
0.560, 2.660e-5
0.559, 2.670e-5
0.558, 2.699e-5
0.557, 2.591e-5
0.556, 2.729e-5
0.555, 2.522e-5
0.554, 2.620e-5
0.553, 2.502e-5
0.552, 2.561e-5
0.551, 2.453e-5
0.550, 2.374e-5
0.549, 2.374e-5
0.548, 2.384e-5
0.547, 2.295e-5
0.546, 2.374e-5
0.545, 2.295e-5
0.544, 2.256e-5
0.543, 2.345e-5
0.542, 2.236e-5
0.541, 2.138e-5
0.540, 2.197e-5
0.539, 2.069e-5
0.538, 1.990e-5
0.537, 2.010e-5
0.536, 2.098e-5
0.535, 1.960e-5
0.534, 1.901e-5
0.533, 1.862e-5
0.532, 1.901e-5
0.531, 1.852e-5
0.530, 1.842e-5
0.529, 1.872e-5
0.528, 1.724e-5
0.527, 1.754e-5
0.526, 1.734e-5
0.525, 1.665e-5
0.524, 1.635e-5
0.523, 1.556e-5
0.522, 1.576e-5
0.521, 1.606e-5
0.520, 1.517e-5
0.519, 1.547e-5
0.518, 1.547e-5
0.517, 1.399e-5
0.516, 1.488e-5
0.515, 1.488e-5
0.514, 1.458e-5
0.513, 1.359e-5
0.512, 1.359e-5
0.511, 1.310e-5
0.510, 1.497e-5
0.509, 1.438e-5
0.508, 1.468e-5
0.507, 1.596e-5
0.506, 1.507e-5
0.505, 1.586e-5
0.504, 1.537e-5
0.503, 1.576e-5
0.502, 1.704e-5
0.501, 1.763e-5
0.500, 1.625e-5
0.499, 1.665e-5
0.498, 1.694e-5
0.497, 1.754e-5
0.496, 1.773e-5
0.495, 1.793e-5
0.494, 1.862e-5
0.493, 1.891e-5
0.492, 1.842e-5
0.491, 2.069e-5
0.490, 1.911e-5
0.489, 2.020e-5
0.488, 2.108e-5
0.487, 2.108e-5
0.486, 1.980e-5
0.485, 2.079e-5
0.484, 2.088e-5
0.483, 2.069e-5
0.482, 2.187e-5
0.481, 2.197e-5
0.480, 2.256e-5
0.479, 2.236e-5
0.478, 2.207e-5
0.477, 2.226e-5
0.476, 2.325e-5
0.475, 2.394e-5
0.474, 2.285e-5
0.473, 2.276e-5
0.472, 2.404e-5
0.471, 2.423e-5
0.470, 2.414e-5
0.469, 2.443e-5
0.468, 2.443e-5
0.467, 2.502e-5
0.466, 2.512e-5
0.465, 2.601e-5
0.464, 2.473e-5
0.463, 2.542e-5
0.462, 2.591e-5
0.461, 2.522e-5
0.460, 2.571e-5
0.459, 2.601e-5
0.458, 2.660e-5
0.457, 2.620e-5
0.456, 2.699e-5
0.455, 2.798e-5
0.454, 2.620e-5
0.453, 2.788e-5
0.452, 2.748e-5
0.451, 2.689e-5
0.450, 2.739e-5
0.449, 2.798e-5
0.448, 2.788e-5
0.447, 2.680e-5
0.446, 2.817e-5
0.445, 2.975e-5
0.444, 2.886e-5
0.443, 2.995e-5
0.442, 2.739e-5
0.441, 2.896e-5
0.440, 2.936e-5
0.439, 2.837e-5
0.438, 3.044e-5
0.437, 2.985e-5
0.436, 3.074e-5
0.435, 2.955e-5
0.434, 2.896e-5
0.433, 2.817e-5
0.432, 2.946e-5
0.431, 2.995e-5
0.430, 3.024e-5
0.429, 3.034e-5
0.428, 3.024e-5
0.427, 3.005e-5
0.426, 3.093e-5
0.425, 2.995e-5
0.424, 3.123e-5
0.423, 3.054e-5
0.422, 3.034e-5
0.421, 3.074e-5
0.420, 2.985e-5
0.419, 3.152e-5
0.418, 3.123e-5
0.417, 3.152e-5
0.416, 3.074e-5
0.415, 3.093e-5
0.414, 3.074e-5
0.413, 3.152e-5
0.412, 3.014e-5
0.411, 3.231e-5
0.410, 3.162e-5
0.409, 3.083e-5
0.408, 3.113e-5
0.407, 3.083e-5
0.406, 2.985e-5
0.405, 3.212e-5
0.404, 3.133e-5
0.403, 3.103e-5
0.402, 3.093e-5
0.401, 3.083e-5
0.400, 3.172e-5
0.399, 3.044e-5
0.398, 3.152e-5
0.397, 3.083e-5
0.396, 3.182e-5
0.395, 3.212e-5
0.394, 3.143e-5
0.393, 3.172e-5
0.392, 3.290e-5
0.391, 3.261e-5
0.390, 3.212e-5
0.389, 3.221e-5
0.388, 3.300e-5
0.387, 3.202e-5
0.386, 3.330e-5
0.385, 3.290e-5
0.384, 3.280e-5
0.383, 3.241e-5
0.382, 3.330e-5
0.381, 3.113e-5
0.380, 3.428e-5
0.379, 3.280e-5
0.378, 3.280e-5
0.377, 3.330e-5
0.376, 3.202e-5
0.375, 3.212e-5
0.374, 3.241e-5
0.373, 3.379e-5
0.372, 3.251e-5
0.371, 3.300e-5
0.370, 3.261e-5
0.369, 3.300e-5
0.368, 3.320e-5
0.367, 3.300e-5
0.366, 3.290e-5
0.365, 3.231e-5
0.364, 3.300e-5
0.363, 3.280e-5
0.362, 3.300e-5
0.361, 3.320e-5
0.360, 3.369e-5
0.359, 3.379e-5
0.358, 3.349e-5
0.357, 3.310e-5
0.356, 3.271e-5
0.355, 3.261e-5
0.354, 3.300e-5
0.353, 3.409e-5
0.352, 3.409e-5
0.351, 3.300e-5
0.350, 3.349e-5
0.349, 3.320e-5
0.348, 3.241e-5
0.347, 3.418e-5
0.346, 3.418e-5
0.345, 3.349e-5
0.344, 3.399e-5
0.343, 3.340e-5
0.342, 3.290e-5
0.341, 3.409e-5
0.340, 3.389e-5
0.339, 3.320e-5
0.338, 3.438e-5
0.337, 3.409e-5
0.336, 3.389e-5
0.335, 3.349e-5
0.334, 3.379e-5
0.333, 3.438e-5
0.332, 3.389e-5
0.331, 3.271e-5
0.330, 3.468e-5
0.329, 3.399e-5
0.328, 3.340e-5
0.327, 3.428e-5
0.326, 3.438e-5
0.325, 3.448e-5
0.324, 3.330e-5
0.323, 3.379e-5
0.322, 3.379e-5
0.321, 3.399e-5
0.320, 3.241e-5
0.319, 3.340e-5
0.318, 3.438e-5
0.317, 3.399e-5
0.316, 3.546e-5
0.315, 3.418e-5
0.314, 3.389e-5
0.313, 3.340e-5
0.312, 3.369e-5
0.311, 3.537e-5
0.310, 3.438e-5
0.309, 3.458e-5
0.308, 3.477e-5
0.307, 3.290e-5
0.306, 3.448e-5
0.305, 3.349e-5
0.304, 3.428e-5
0.303, 3.369e-5
0.302, 3.428e-5
0.301, 3.438e-5
0.300, 3.409e-5
0.299, 3.359e-5
0.298, 3.409e-5
0.297, 3.369e-5
0.296, 3.418e-5
0.295, 3.379e-5
0.294, 3.409e-5
0.293, 3.458e-5
0.292, 3.349e-5
0.291, 3.438e-5
0.290, 3.409e-5
0.289, 3.349e-5
0.288, 3.251e-5
0.287, 3.349e-5
0.286, 3.340e-5
0.285, 3.418e-5
0.284, 3.379e-5
0.283, 3.428e-5
0.282, 3.290e-5
0.281, 3.182e-5
0.280, 3.399e-5
0.279, 3.389e-5
0.278, 3.389e-5
0.277, 3.458e-5
0.276, 3.349e-5
0.275, 3.340e-5
0.274, 3.369e-5
0.273, 3.468e-5
0.272, 3.359e-5
0.271, 3.389e-5
0.270, 3.409e-5
0.269, 3.379e-5
0.268, 3.369e-5
0.267, 3.399e-5
0.266, 3.300e-5
0.265, 3.389e-5
0.264, 3.280e-5
0.263, 3.330e-5
0.262, 3.379e-5
0.261, 3.448e-5
0.260, 3.468e-5
0.259, 3.340e-5
0.258, 3.349e-5
0.257, 3.468e-5
0.256, 3.369e-5
0.255, 3.290e-5
0.254, 3.330e-5
0.253, 3.418e-5
0.252, 3.261e-5
0.251, 3.359e-5
0.250, 3.359e-5
0.249, 3.330e-5
0.248, 3.280e-5
0.247, 3.418e-5
0.246, 3.389e-5
0.245, 3.418e-5
0.244, 3.320e-5
0.243, 3.379e-5
0.242, 3.369e-5
0.241, 3.428e-5
0.240, 3.389e-5
0.239, 3.359e-5
0.238, 3.290e-5
0.237, 3.320e-5
0.236, 3.251e-5
0.235, 3.399e-5
0.234, 3.448e-5
0.233, 3.340e-5
0.232, 3.409e-5
0.231, 3.409e-5
0.230, 3.340e-5
0.229, 3.300e-5
0.228, 3.251e-5
0.227, 3.369e-5
0.226, 3.261e-5
0.225, 3.379e-5
0.224, 3.271e-5
0.223, 3.349e-5
0.222, 3.280e-5
0.221, 3.241e-5
0.220, 3.438e-5
0.219, 3.369e-5
0.218, 3.379e-5
0.217, 3.359e-5
0.216, 3.438e-5
0.215, 3.241e-5
0.214, 3.349e-5
0.213, 3.251e-5
0.212, 3.271e-5
0.211, 3.320e-5
0.210, 3.428e-5
0.209, 3.340e-5
0.208, 3.310e-5
0.207, 3.330e-5
0.206, 3.290e-5
0.205, 3.340e-5
0.204, 3.271e-5
0.203, 3.330e-5
0.202, 3.103e-5
0.201, 3.310e-5
0.200, 3.172e-5
0.199, 3.330e-5
0.198, 3.074e-5
0.197, 3.349e-5
0.196, 3.340e-5
0.195, 3.241e-5
0.194, 3.241e-5
0.193, 3.290e-5
0.192, 3.330e-5
0.191, 3.261e-5
0.190, 3.369e-5
0.189, 3.359e-5
0.188, 3.261e-5
0.187, 3.271e-5
0.186, 3.192e-5
0.185, 3.271e-5
0.184, 3.379e-5
0.183, 3.340e-5
0.182, 3.241e-5
0.181, 3.290e-5
0.180, 3.271e-5
0.179, 3.192e-5
0.178, 3.182e-5
0.177, 3.241e-5
0.176, 3.231e-5
0.175, 3.418e-5
0.174, 3.241e-5
0.173, 3.212e-5
0.172, 3.290e-5
0.171, 3.340e-5
0.170, 3.290e-5
0.169, 3.251e-5
0.168, 3.192e-5
0.167, 3.290e-5
0.166, 3.310e-5
0.165, 3.251e-5
0.164, 3.212e-5
0.163, 3.271e-5
0.162, 3.330e-5
0.161, 3.290e-5
0.160, 3.261e-5
0.159, 3.359e-5
0.158, 3.369e-5
0.157, 3.241e-5
0.156, 3.212e-5
0.155, 3.300e-5
0.154, 3.418e-5
0.153, 3.300e-5
0.152, 3.251e-5
0.151, 3.103e-5
0.150, 3.251e-5
0.149, 3.261e-5
0.148, 3.271e-5
0.147, 3.310e-5
0.146, 3.290e-5
0.145, 3.280e-5
0.144, 3.330e-5
0.143, 3.310e-5
0.142, 3.231e-5
0.141, 3.162e-5
0.140, 3.379e-5
0.139, 3.241e-5
0.138, 3.290e-5
0.137, 3.192e-5
0.136, 3.389e-5
0.135, 3.192e-5
0.134, 3.172e-5
0.133, 3.212e-5
0.132, 3.251e-5
0.131, 3.280e-5
0.130, 3.300e-5
0.129, 3.310e-5
0.128, 3.241e-5
0.127, 3.300e-5
0.126, 3.280e-5
0.125, 3.192e-5
0.124, 3.251e-5
0.123, 3.182e-5
0.122, 3.280e-5
0.121, 3.221e-5
0.120, 3.212e-5
0.119, 3.280e-5
0.118, 3.261e-5
0.117, 3.241e-5
0.116, 3.280e-5
0.115, 3.290e-5
0.114, 3.271e-5
0.113, 3.300e-5
0.112, 3.320e-5
0.111, 3.280e-5
0.110, 3.379e-5
0.109, 3.320e-5
0.108, 3.310e-5
0.107, 3.330e-5
0.106, 3.231e-5
0.105, 3.330e-5
0.104, 3.310e-5
0.103, 3.192e-5
0.102, 3.212e-5
0.101, 3.212e-5
0.100, 3.251e-5
0.099, 3.113e-5
0.098, 3.172e-5
0.097, 3.182e-5
0.096, 3.271e-5
0.095, 3.182e-5
0.094, 3.241e-5
0.093, 3.241e-5
0.092, 3.212e-5
0.091, 3.261e-5
0.090, 3.251e-5
0.089, 3.093e-5
0.088, 3.221e-5
0.087, 3.192e-5
0.086, 3.330e-5
0.085, 3.340e-5
0.084, 3.152e-5
0.083, 3.221e-5
0.082, 3.202e-5
0.081, 3.300e-5
0.080, 3.290e-5
0.079, 3.241e-5
0.078, 3.330e-5
0.077, 3.231e-5
0.076, 3.202e-5
0.075, 3.320e-5
0.074, 3.221e-5
0.073, 3.133e-5
0.072, 3.152e-5
0.071, 3.320e-5
0.070, 3.300e-5
0.069, 3.280e-5
0.068, 3.241e-5
0.067, 3.280e-5
0.066, 3.389e-5
0.065, 3.320e-5
0.064, 3.340e-5
0.063, 3.280e-5
0.062, 3.172e-5
0.061, 3.212e-5
0.060, 3.231e-5
0.059, 3.241e-5
0.058, 3.369e-5
0.057, 3.340e-5
0.056, 3.320e-5
0.055, 3.241e-5
0.054, 3.290e-5
0.053, 3.379e-5
0.052, 3.271e-5
0.051, 3.192e-5
0.050, 3.310e-5
0.049, 3.221e-5
0.048, 3.359e-5
0.047, 3.290e-5
0.046, 3.251e-5
0.045, 3.271e-5
0.044, 3.251e-5
0.043, 3.330e-5
0.042, 3.182e-5
0.041, 3.241e-5
0.040, 3.320e-5
0.039, 3.172e-5
0.038, 3.300e-5
0.037, 3.251e-5
0.036, 3.241e-5
0.035, 3.369e-5
0.034, 3.310e-5
0.033, 3.320e-5
0.032, 3.271e-5
0.031, 3.330e-5
0.030, 3.231e-5
0.029, 3.231e-5
0.028, 3.251e-5
0.027, 3.280e-5
0.026, 3.290e-5
0.025, 3.212e-5
0.024, 3.349e-5
0.023, 3.290e-5
0.022, 3.349e-5
0.021, 3.231e-5
0.020, 3.251e-5
0.019, 3.152e-5
0.018, 3.271e-5
0.017, 3.251e-5
0.016, 3.300e-5
0.015, 3.251e-5
0.014, 3.330e-5
0.013, 3.251e-5
0.012, 3.202e-5
0.011, 3.330e-5
0.010, 3.182e-5
0.009, 3.231e-5
0.008, 3.271e-5
0.007, 3.212e-5
0.006, 3.202e-5
0.005, 3.231e-5
0.004, 3.251e-5
0.003, 3.271e-5
0.002, 3.300e-5
0.001, 3.231e-5
