July 3, 2026   21:19:43
Cyclic Voltammetry
File: d:\hnu\Data Source:  Experiment
Instrument Model:  CHI660E
Header: 
Note: 

Init E (V) = 0
High E (V) = 0.9
Low E (V) = 0
Init P/N = P
Scan Rate (V/s) = 0.1
Segment = 2
Sample Interval (V) = 0.001
Quiet Time (sec) = 2
Sensitivity (A/V) = 0.1

Results:

Channel 1:
Segment 1:

Segment 2:
Ep = 0.322V
ip = 2.436e-6A
Ah = 2.908e-7C

Potential/V, Current/A

0.000, 6.226e-5
0.001, 6.265e-5
0.002, 6.127e-5
0.003, 6.196e-5
0.004, 6.167e-5
0.005, 6.246e-5
0.006, 6.206e-5
0.007, 6.265e-5
0.008, 6.256e-5
0.009, 6.354e-5
0.010, 6.236e-5
0.011, 6.256e-5
0.012, 6.246e-5
0.013, 6.324e-5
0.014, 6.127e-5
0.015, 6.305e-5
0.016, 6.413e-5
0.017, 6.275e-5
0.018, 6.265e-5
0.019, 6.265e-5
0.020, 6.324e-5
0.021, 6.265e-5
0.022, 6.226e-5
0.023, 6.275e-5
0.024, 6.374e-5
0.025, 6.364e-5
0.026, 6.393e-5
0.027, 6.344e-5
0.028, 6.384e-5
0.029, 6.384e-5
0.030, 6.374e-5
0.031, 6.453e-5
0.032, 6.354e-5
0.033, 6.384e-5
0.034, 6.324e-5
0.035, 6.256e-5
0.036, 6.315e-5
0.037, 6.305e-5
0.038, 6.502e-5
0.039, 6.384e-5
0.040, 6.403e-5
0.041, 6.393e-5
0.042, 6.423e-5
0.043, 6.364e-5
0.044, 6.482e-5
0.045, 6.354e-5
0.046, 6.433e-5
0.047, 6.324e-5
0.048, 6.443e-5
0.049, 6.334e-5
0.050, 6.423e-5
0.051, 6.403e-5
0.052, 6.433e-5
0.053, 6.413e-5
0.054, 6.384e-5
0.055, 6.354e-5
0.056, 6.443e-5
0.057, 6.462e-5
0.058, 6.531e-5
0.059, 6.374e-5
0.060, 6.364e-5
0.061, 6.482e-5
0.062, 6.443e-5
0.063, 6.344e-5
0.064, 6.403e-5
0.065, 6.561e-5
0.066, 6.364e-5
0.067, 6.433e-5
0.068, 6.541e-5
0.069, 6.453e-5
0.070, 6.443e-5
0.071, 6.433e-5
0.072, 6.492e-5
0.073, 6.522e-5
0.074, 6.472e-5
0.075, 6.531e-5
0.076, 6.403e-5
0.077, 6.403e-5
0.078, 6.512e-5
0.079, 6.374e-5
0.080, 6.482e-5
0.081, 6.472e-5
0.082, 6.541e-5
0.083, 6.482e-5
0.084, 6.571e-5
0.085, 6.502e-5
0.086, 6.512e-5
0.087, 6.482e-5
0.088, 6.472e-5
0.089, 6.590e-5
0.090, 6.571e-5
0.091, 6.659e-5
0.092, 6.610e-5
0.093, 6.590e-5
0.094, 6.541e-5
0.095, 6.571e-5
0.096, 6.620e-5
0.097, 6.590e-5
0.098, 6.551e-5
0.099, 6.610e-5
0.100, 6.561e-5
0.101, 6.551e-5
0.102, 6.581e-5
0.103, 6.738e-5
0.104, 6.610e-5
0.105, 6.620e-5
0.106, 6.709e-5
0.107, 6.679e-5
0.108, 6.659e-5
0.109, 6.620e-5
0.110, 6.640e-5
0.111, 6.728e-5
0.112, 6.728e-5
0.113, 6.738e-5
0.114, 6.758e-5
0.115, 6.502e-5
0.116, 6.797e-5
0.117, 6.689e-5
0.118, 6.807e-5
0.119, 6.768e-5
0.120, 6.807e-5
0.121, 6.719e-5
0.122, 6.728e-5
0.123, 6.876e-5
0.124, 6.728e-5
0.125, 6.797e-5
0.126, 6.758e-5
0.127, 6.847e-5
0.128, 6.837e-5
0.129, 6.876e-5
0.130, 6.807e-5
0.131, 6.847e-5
0.132, 6.768e-5
0.133, 6.906e-5
0.134, 6.847e-5
0.135, 6.935e-5
0.136, 6.856e-5
0.137, 6.856e-5
0.138, 6.856e-5
0.139, 6.886e-5
0.140, 6.985e-5
0.141, 6.985e-5
0.142, 6.916e-5
0.143, 6.925e-5
0.144, 6.965e-5
0.145, 6.906e-5
0.146, 6.925e-5
0.147, 6.975e-5
0.148, 6.916e-5
0.149, 7.034e-5
0.150, 7.053e-5
0.151, 6.965e-5
0.152, 7.113e-5
0.153, 7.053e-5
0.154, 7.152e-5
0.155, 7.241e-5
0.156, 7.113e-5
0.157, 7.122e-5
0.158, 7.132e-5
0.159, 7.122e-5
0.160, 7.172e-5
0.161, 7.221e-5
0.162, 7.290e-5
0.163, 7.191e-5
0.164, 7.231e-5
0.165, 7.132e-5
0.166, 7.182e-5
0.167, 7.152e-5
0.168, 7.290e-5
0.169, 7.290e-5
0.170, 7.241e-5
0.171, 7.211e-5
0.172, 7.300e-5
0.173, 7.270e-5
0.174, 7.398e-5
0.175, 7.270e-5
0.176, 7.349e-5
0.177, 7.300e-5
0.178, 7.379e-5
0.179, 7.398e-5
0.180, 7.251e-5
0.181, 7.408e-5
0.182, 7.359e-5
0.183, 7.428e-5
0.184, 7.319e-5
0.185, 7.438e-5
0.186, 7.487e-5
0.187, 7.448e-5
0.188, 7.349e-5
0.189, 7.507e-5
0.190, 7.467e-5
0.191, 7.388e-5
0.192, 7.536e-5
0.193, 7.556e-5
0.194, 7.497e-5
0.195, 7.536e-5
0.196, 7.566e-5
0.197, 7.408e-5
0.198, 7.457e-5
0.199, 7.546e-5
0.200, 7.516e-5
0.201, 7.497e-5
0.202, 7.585e-5
0.203, 7.507e-5
0.204, 7.526e-5
0.205, 7.576e-5
0.206, 7.723e-5
0.207, 7.526e-5
0.208, 7.674e-5
0.209, 7.654e-5
0.210, 7.546e-5
0.211, 7.585e-5
0.212, 7.526e-5
0.213, 7.625e-5
0.214, 7.674e-5
0.215, 7.595e-5
0.216, 7.526e-5
0.217, 7.615e-5
0.218, 7.645e-5
0.219, 7.566e-5
0.220, 7.684e-5
0.221, 7.487e-5
0.222, 7.516e-5
0.223, 7.536e-5
0.224, 7.635e-5
0.225, 7.516e-5
0.226, 7.585e-5
0.227, 7.595e-5
0.228, 7.546e-5
0.229, 7.457e-5
0.230, 7.566e-5
0.231, 7.576e-5
0.232, 7.576e-5
0.233, 7.526e-5
0.234, 7.585e-5
0.235, 7.605e-5
0.236, 7.536e-5
0.237, 7.369e-5
0.238, 7.536e-5
0.239, 7.546e-5
0.240, 7.428e-5
0.241, 7.605e-5
0.242, 7.536e-5
0.243, 7.576e-5
0.244, 7.546e-5
0.245, 7.566e-5
0.246, 7.595e-5
0.247, 7.477e-5
0.248, 7.566e-5
0.249, 7.428e-5
0.250, 7.516e-5
0.251, 7.516e-5
0.252, 7.536e-5
0.253, 7.566e-5
0.254, 7.556e-5
0.255, 7.497e-5
0.256, 7.625e-5
0.257, 7.615e-5
0.258, 7.595e-5
0.259, 7.497e-5
0.260, 7.684e-5
0.261, 7.585e-5
0.262, 7.526e-5
0.263, 7.585e-5
0.264, 7.615e-5
0.265, 7.605e-5
0.266, 7.457e-5
0.267, 7.615e-5
0.268, 7.595e-5
0.269, 7.615e-5
0.270, 7.635e-5
0.271, 7.526e-5
0.272, 7.585e-5
0.273, 7.625e-5
0.274, 7.625e-5
0.275, 7.585e-5
0.276, 7.556e-5
0.277, 7.684e-5
0.278, 7.595e-5
0.279, 7.605e-5
0.280, 7.536e-5
0.281, 7.536e-5
0.282, 7.615e-5
0.283, 7.526e-5
0.284, 7.674e-5
0.285, 7.664e-5
0.286, 7.585e-5
0.287, 7.625e-5
0.288, 7.664e-5
0.289, 7.654e-5
0.290, 7.526e-5
0.291, 7.635e-5
0.292, 7.566e-5
0.293, 7.674e-5
0.294, 7.645e-5
0.295, 7.645e-5
0.296, 7.782e-5
0.297, 7.625e-5
0.298, 7.684e-5
0.299, 7.615e-5
0.300, 7.704e-5
0.301, 7.625e-5
0.302, 7.733e-5
0.303, 7.576e-5
0.304, 7.792e-5
0.305, 7.763e-5
0.306, 7.664e-5
0.307, 7.635e-5
0.308, 7.763e-5
0.309, 7.645e-5
0.310, 7.733e-5
0.311, 7.743e-5
0.312, 7.654e-5
0.313, 7.723e-5
0.314, 7.802e-5
0.315, 7.684e-5
0.316, 7.753e-5
0.317, 7.595e-5
0.318, 7.674e-5
0.319, 7.664e-5
0.320, 7.704e-5
0.321, 7.832e-5
0.322, 7.753e-5
0.323, 7.773e-5
0.324, 7.753e-5
0.325, 7.812e-5
0.326, 7.733e-5
0.327, 7.792e-5
0.328, 7.664e-5
0.329, 7.684e-5
0.330, 7.664e-5
0.331, 7.714e-5
0.332, 7.733e-5
0.333, 7.901e-5
0.334, 7.822e-5
0.335, 7.763e-5
0.336, 7.733e-5
0.337, 7.782e-5
0.338, 7.861e-5
0.339, 7.851e-5
0.340, 7.842e-5
0.341, 7.694e-5
0.342, 7.871e-5
0.343, 7.812e-5
0.344, 7.782e-5
0.345, 7.812e-5
0.346, 7.842e-5
0.347, 7.812e-5
0.348, 7.920e-5
0.349, 7.871e-5
0.350, 7.871e-5
0.351, 7.842e-5
0.352, 7.753e-5
0.353, 7.832e-5
0.354, 7.861e-5
0.355, 7.802e-5
0.356, 7.842e-5
0.357, 7.940e-5
0.358, 7.980e-5
0.359, 7.970e-5
0.360, 7.989e-5
0.361, 7.970e-5
0.362, 7.871e-5
0.363, 7.911e-5
0.364, 7.920e-5
0.365, 7.891e-5
0.366, 7.960e-5
0.367, 8.009e-5
0.368, 7.842e-5
0.369, 7.930e-5
0.370, 7.871e-5
0.371, 7.960e-5
0.372, 8.009e-5
0.373, 7.999e-5
0.374, 7.871e-5
0.375, 7.970e-5
0.376, 7.822e-5
0.377, 7.989e-5
0.378, 7.960e-5
0.379, 8.019e-5
0.380, 8.029e-5
0.381, 8.019e-5
0.382, 7.970e-5
0.383, 8.068e-5
0.384, 8.058e-5
0.385, 8.048e-5
0.386, 8.098e-5
0.387, 8.029e-5
0.388, 7.989e-5
0.389, 8.078e-5
0.390, 8.048e-5
0.391, 7.999e-5
0.392, 8.039e-5
0.393, 8.029e-5
0.394, 8.127e-5
0.395, 8.117e-5
0.396, 8.029e-5
0.397, 8.058e-5
0.398, 8.137e-5
0.399, 8.157e-5
0.400, 8.009e-5
0.401, 8.186e-5
0.402, 8.108e-5
0.403, 8.196e-5
0.404, 8.177e-5
0.405, 8.196e-5
0.406, 8.206e-5
0.407, 8.167e-5
0.408, 8.147e-5
0.409, 8.255e-5
0.410, 8.226e-5
0.411, 8.196e-5
0.412, 8.324e-5
0.413, 8.206e-5
0.414, 8.206e-5
0.415, 8.354e-5
0.416, 8.354e-5
0.417, 8.403e-5
0.418, 8.374e-5
0.419, 8.265e-5
0.420, 8.452e-5
0.421, 8.334e-5
0.422, 8.265e-5
0.423, 8.393e-5
0.424, 8.344e-5
0.425, 8.383e-5
0.426, 8.462e-5
0.427, 8.344e-5
0.428, 8.245e-5
0.429, 8.433e-5
0.430, 8.472e-5
0.431, 8.374e-5
0.432, 8.305e-5
0.433, 8.423e-5
0.434, 8.472e-5
0.435, 8.433e-5
0.436, 8.423e-5
0.437, 8.433e-5
0.438, 8.433e-5
0.439, 8.531e-5
0.440, 8.443e-5
0.441, 8.443e-5
0.442, 8.521e-5
0.443, 8.482e-5
0.444, 8.472e-5
0.445, 8.472e-5
0.446, 8.531e-5
0.447, 8.511e-5
0.448, 8.580e-5
0.449, 8.571e-5
0.450, 8.580e-5
0.451, 8.561e-5
0.452, 8.580e-5
0.453, 8.531e-5
0.454, 8.492e-5
0.455, 8.561e-5
0.456, 8.571e-5
0.457, 8.649e-5
0.458, 8.561e-5
0.459, 8.640e-5
0.460, 8.561e-5
0.461, 8.738e-5
0.462, 8.708e-5
0.463, 8.620e-5
0.464, 8.699e-5
0.465, 8.630e-5
0.466, 8.600e-5
0.467, 8.649e-5
0.468, 8.699e-5
0.469, 8.728e-5
0.470, 8.708e-5
0.471, 8.600e-5
0.472, 8.699e-5
0.473, 8.728e-5
0.474, 8.866e-5
0.475, 8.777e-5
0.476, 8.797e-5
0.477, 8.718e-5
0.478, 8.797e-5
0.479, 8.738e-5
0.480, 8.777e-5
0.481, 8.886e-5
0.482, 8.856e-5
0.483, 8.797e-5
0.484, 8.797e-5
0.485, 8.758e-5
0.486, 8.876e-5
0.487, 8.837e-5
0.488, 8.896e-5
0.489, 8.876e-5
0.490, 8.925e-5
0.491, 8.856e-5
0.492, 8.935e-5
0.493, 8.945e-5
0.494, 8.886e-5
0.495, 8.965e-5
0.496, 9.103e-5
0.497, 8.955e-5
0.498, 8.984e-5
0.499, 9.112e-5
0.500, 8.876e-5
0.501, 9.024e-5
0.502, 8.896e-5
0.503, 9.172e-5
0.504, 9.112e-5
0.505, 8.935e-5
0.506, 9.034e-5
0.507, 9.083e-5
0.508, 9.162e-5
0.509, 9.083e-5
0.510, 9.152e-5
0.511, 9.053e-5
0.512, 9.142e-5
0.513, 9.181e-5
0.514, 9.181e-5
0.515, 9.162e-5
0.516, 9.152e-5
0.517, 9.181e-5
0.518, 9.191e-5
0.519, 9.221e-5
0.520, 9.162e-5
0.521, 9.359e-5
0.522, 9.122e-5
0.523, 9.201e-5
0.524, 9.260e-5
0.525, 9.221e-5
0.526, 9.250e-5
0.527, 9.319e-5
0.528, 9.329e-5
0.529, 9.309e-5
0.530, 9.240e-5
0.531, 9.270e-5
0.532, 9.290e-5
0.533, 9.369e-5
0.534, 9.309e-5
0.535, 9.378e-5
0.536, 9.398e-5
0.537, 9.437e-5
0.538, 9.339e-5
0.539, 9.408e-5
0.540, 9.516e-5
0.541, 9.378e-5
0.542, 9.408e-5
0.543, 9.418e-5
0.544, 9.388e-5
0.545, 9.467e-5
0.546, 9.497e-5
0.547, 9.418e-5
0.548, 9.457e-5
0.549, 9.447e-5
0.550, 9.566e-5
0.551, 9.605e-5
0.552, 9.625e-5
0.553, 9.585e-5
0.554, 9.506e-5
0.555, 9.566e-5
0.556, 9.585e-5
0.557, 9.536e-5
0.558, 9.654e-5
0.559, 9.605e-5
0.560, 9.585e-5
0.561, 9.644e-5
0.562, 9.635e-5
0.563, 9.654e-5
0.564, 9.713e-5
0.565, 9.694e-5
0.566, 9.654e-5
0.567, 9.654e-5
0.568, 9.684e-5
0.569, 9.694e-5
0.570, 9.694e-5
0.571, 9.694e-5
0.572, 9.684e-5
0.573, 9.743e-5
0.574, 9.694e-5
0.575, 9.753e-5
0.576, 9.930e-5
0.577, 9.782e-5
0.578, 9.871e-5
0.579, 9.832e-5
0.580, 9.851e-5
0.581, 9.881e-5
0.582, 9.851e-5
0.583, 9.900e-5
0.584, 9.772e-5
0.585, 9.950e-5
0.586, 9.851e-5
0.587, 9.920e-5
0.588, 1.007e-4
0.589, 9.950e-5
0.590, 9.950e-5
0.591, 9.920e-5
0.592, 1.005e-4
0.593, 1.006e-4
0.594, 1.011e-4
0.595, 1.006e-4
0.596, 1.013e-4
0.597, 1.018e-4
0.598, 1.004e-4
0.599, 1.012e-4
0.600, 1.009e-4
0.601, 1.014e-4
0.602, 1.026e-4
0.603, 1.026e-4
0.604, 1.017e-4
0.605, 1.024e-4
0.606, 1.020e-4
0.607, 1.037e-4
0.608, 1.030e-4
0.609, 1.022e-4
0.610, 1.040e-4
0.611, 1.039e-4
0.612, 1.033e-4
0.613, 1.050e-4
0.614, 1.042e-4
0.615, 1.053e-4
0.616, 1.060e-4
0.617, 1.048e-4
0.618, 1.052e-4
0.619, 1.058e-4
0.620, 1.053e-4
0.621, 1.051e-4
0.622, 1.059e-4
0.623, 1.061e-4
0.624, 1.065e-4
0.625, 1.066e-4
0.626, 1.075e-4
0.627, 1.078e-4
0.628, 1.094e-4
0.629, 1.090e-4
0.630, 1.095e-4
0.631, 1.097e-4
0.632, 1.099e-4
0.633, 1.104e-4
0.634, 1.096e-4
0.635, 1.100e-4
0.636, 1.116e-4
0.637, 1.114e-4
0.638, 1.129e-4
0.639, 1.125e-4
0.640, 1.147e-4
0.641, 1.142e-4
0.642, 1.150e-4
0.643, 1.159e-4
0.644, 1.157e-4
0.645, 1.159e-4
0.646, 1.183e-4
0.647, 1.189e-4
0.648, 1.180e-4
0.649, 1.205e-4
0.650, 1.203e-4
0.651, 1.216e-4
0.652, 1.228e-4
0.653, 1.232e-4
0.654, 1.258e-4
0.655, 1.251e-4
0.656, 1.268e-4
0.657, 1.283e-4
0.658, 1.293e-4
0.659, 1.306e-4
0.660, 1.331e-4
0.661, 1.333e-4
0.662, 1.350e-4
0.663, 1.374e-4
0.664, 1.391e-4
0.665, 1.424e-4
0.666, 1.438e-4
0.667, 1.461e-4
0.668, 1.484e-4
0.669, 1.493e-4
0.670, 1.534e-4
0.671, 1.550e-4
0.672, 1.577e-4
0.673, 1.617e-4
0.674, 1.633e-4
0.675, 1.660e-4
0.676, 1.696e-4
0.677, 1.733e-4
0.678, 1.758e-4
0.679, 1.796e-4
0.680, 1.834e-4
0.681, 1.865e-4
0.682, 1.929e-4
0.683, 1.956e-4
0.684, 1.995e-4
0.685, 2.043e-4
0.686, 2.103e-4
0.687, 2.139e-4
0.688, 2.196e-4
0.689, 2.252e-4
0.690, 2.313e-4
0.691, 2.378e-4
0.692, 2.434e-4
0.693, 2.500e-4
0.694, 2.556e-4
0.695, 2.636e-4
0.696, 2.710e-4
0.697, 2.774e-4
0.698, 2.867e-4
0.699, 2.927e-4
0.700, 3.016e-4
0.701, 3.099e-4
0.702, 3.175e-4
0.703, 3.263e-4
0.704, 3.363e-4
0.705, 3.453e-4
0.706, 3.550e-4
0.707, 3.653e-4
0.708, 3.760e-4
0.709, 3.858e-4
0.710, 3.973e-4
0.711, 4.090e-4
0.712, 4.205e-4
0.713, 4.313e-4
0.714, 4.441e-4
0.715, 4.563e-4
0.716, 4.690e-4
0.717, 4.822e-4
0.718, 4.964e-4
0.719, 5.115e-4
0.720, 5.243e-4
0.721, 5.387e-4
0.722, 5.530e-4
0.723, 5.673e-4
0.724, 5.844e-4
0.725, 5.987e-4
0.726, 6.146e-4
0.727, 6.301e-4
0.728, 6.487e-4
0.729, 6.642e-4
0.730, 6.817e-4
0.731, 6.989e-4
0.732, 7.171e-4
0.733, 7.356e-4
0.734, 7.533e-4
0.735, 7.718e-4
0.736, 7.898e-4
0.737, 8.091e-4
0.738, 8.284e-4
0.739, 8.474e-4
0.740, 8.677e-4
0.741, 8.872e-4
0.742, 9.074e-4
0.743, 9.278e-4
0.744, 9.476e-4
0.745, 9.708e-4
0.746, 9.911e-4
0.747, 1.013e-3
0.748, 1.036e-3
0.749, 1.058e-3
0.750, 1.079e-3
0.751, 1.101e-3
0.752, 1.123e-3
0.753, 1.146e-3
0.754, 1.170e-3
0.755, 1.195e-3
0.756, 1.220e-3
0.757, 1.244e-3
0.758, 1.268e-3
0.759, 1.294e-3
0.760, 1.319e-3
0.761, 1.344e-3
0.762, 1.369e-3
0.763, 1.397e-3
0.764, 1.422e-3
0.765, 1.449e-3
0.766, 1.475e-3
0.767, 1.504e-3
0.768, 1.531e-3
0.769, 1.558e-3
0.770, 1.584e-3
0.771, 1.613e-3
0.772, 1.640e-3
0.773, 1.667e-3
0.774, 1.695e-3
0.775, 1.726e-3
0.776, 1.754e-3
0.777, 1.781e-3
0.778, 1.812e-3
0.779, 1.840e-3
0.780, 1.870e-3
0.781, 1.900e-3
0.782, 1.930e-3
0.783, 1.961e-3
0.784, 1.992e-3
0.785, 2.024e-3
0.786, 2.055e-3
0.787, 2.086e-3
0.788, 2.116e-3
0.789, 2.146e-3
0.790, 2.180e-3
0.791, 2.211e-3
0.792, 2.245e-3
0.793, 2.277e-3
0.794, 2.306e-3
0.795, 2.338e-3
0.796, 2.370e-3
0.797, 2.402e-3
0.798, 2.435e-3
0.799, 2.469e-3
0.800, 2.502e-3
0.801, 2.536e-3
0.802, 2.570e-3
0.803, 2.604e-3
0.804, 2.637e-3
0.805, 2.670e-3
0.806, 2.705e-3
0.807, 2.740e-3
0.808, 2.775e-3
0.809, 2.809e-3
0.810, 2.844e-3
0.811, 2.878e-3
0.812, 2.914e-3
0.813, 2.949e-3
0.814, 2.984e-3
0.815, 3.020e-3
0.816, 3.056e-3
0.817, 3.093e-3
0.818, 3.128e-3
0.819, 3.166e-3
0.820, 3.203e-3
0.821, 3.239e-3
0.822, 3.276e-3
0.823, 3.313e-3
0.824, 3.349e-3
0.825, 3.384e-3
0.826, 3.417e-3
0.827, 3.457e-3
0.828, 3.495e-3
0.829, 3.534e-3
0.830, 3.573e-3
0.831, 3.610e-3
0.832, 3.646e-3
0.833, 3.681e-3
0.834, 3.713e-3
0.835, 3.744e-3
0.836, 3.778e-3
0.837, 3.816e-3
0.838, 3.854e-3
0.839, 3.891e-3
0.840, 3.929e-3
0.841, 3.966e-3
0.842, 4.006e-3
0.843, 4.043e-3
0.844, 4.080e-3
0.845, 4.120e-3
0.846, 4.157e-3
0.847, 4.195e-3
0.848, 4.233e-3
0.849, 4.273e-3
0.850, 4.312e-3
0.851, 4.351e-3
0.852, 4.389e-3
0.853, 4.429e-3
0.854, 4.469e-3
0.855, 4.509e-3
0.856, 4.547e-3
0.857, 4.589e-3
0.858, 4.626e-3
0.859, 4.665e-3
0.860, 4.706e-3
0.861, 4.745e-3
0.862, 4.783e-3
0.863, 4.823e-3
0.864, 4.864e-3
0.865, 4.902e-3
0.866, 4.941e-3
0.867, 4.983e-3
0.868, 5.024e-3
0.869, 5.062e-3
0.870, 5.099e-3
0.871, 5.137e-3
0.872, 5.178e-3
0.873, 5.219e-3
0.874, 5.267e-3
0.875, 5.309e-3
0.876, 5.351e-3
0.877, 5.392e-3
0.878, 5.435e-3
0.879, 5.474e-3
0.880, 5.512e-3
0.881, 5.552e-3
0.882, 5.591e-3
0.883, 5.634e-3
0.884, 5.678e-3
0.885, 5.723e-3
0.886, 5.766e-3
0.887, 5.804e-3
0.888, 5.843e-3
0.889, 5.882e-3
0.890, 5.923e-3
0.891, 5.962e-3
0.892, 6.002e-3
0.893, 6.040e-3
0.894, 6.078e-3
0.895, 6.119e-3
0.896, 6.156e-3
0.897, 6.197e-3
0.898, 6.235e-3
0.899, 6.277e-3
0.900, 6.285e-3
0.899, 6.226e-3
0.898, 6.166e-3
0.897, 6.106e-3
0.896, 6.046e-3
0.895, 5.987e-3
0.894, 5.926e-3
0.893, 5.865e-3
0.892, 5.808e-3
0.891, 5.749e-3
0.890, 5.695e-3
0.889, 5.637e-3
0.888, 5.587e-3
0.887, 5.533e-3
0.886, 5.478e-3
0.885, 5.427e-3
0.884, 5.373e-3
0.883, 5.322e-3
0.882, 5.275e-3
0.881, 5.223e-3
0.880, 5.169e-3
0.879, 5.117e-3
0.878, 5.070e-3
0.877, 5.020e-3
0.876, 4.969e-3
0.875, 4.919e-3
0.874, 4.868e-3
0.873, 4.818e-3
0.872, 4.780e-3
0.871, 4.729e-3
0.870, 4.681e-3
0.869, 4.643e-3
0.868, 4.595e-3
0.867, 4.547e-3
0.866, 4.499e-3
0.865, 4.451e-3
0.864, 4.401e-3
0.863, 4.361e-3
0.862, 4.331e-3
0.861, 4.282e-3
0.860, 4.237e-3
0.859, 4.192e-3
0.858, 4.150e-3
0.857, 4.111e-3
0.856, 4.067e-3
0.855, 4.024e-3
0.854, 3.980e-3
0.853, 3.936e-3
0.852, 3.893e-3
0.851, 3.852e-3
0.850, 3.808e-3
0.849, 3.767e-3
0.848, 3.728e-3
0.847, 3.693e-3
0.846, 3.655e-3
0.845, 3.617e-3
0.844, 3.575e-3
0.843, 3.531e-3
0.842, 3.489e-3
0.841, 3.448e-3
0.840, 3.407e-3
0.839, 3.369e-3
0.838, 3.341e-3
0.837, 3.302e-3
0.836, 3.261e-3
0.835, 3.221e-3
0.834, 3.180e-3
0.833, 3.143e-3
0.832, 3.109e-3
0.831, 3.073e-3
0.830, 3.033e-3
0.829, 2.998e-3
0.828, 2.965e-3
0.827, 2.930e-3
0.826, 2.896e-3
0.825, 2.859e-3
0.824, 2.823e-3
0.823, 2.786e-3
0.822, 2.749e-3
0.821, 2.713e-3
0.820, 2.679e-3
0.819, 2.641e-3
0.818, 2.607e-3
0.817, 2.573e-3
0.816, 2.537e-3
0.815, 2.504e-3
0.814, 2.470e-3
0.813, 2.436e-3
0.812, 2.402e-3
0.811, 2.371e-3
0.810, 2.338e-3
0.809, 2.308e-3
0.808, 2.276e-3
0.807, 2.244e-3
0.806, 2.212e-3
0.805, 2.180e-3
0.804, 2.150e-3
0.803, 2.119e-3
0.802, 2.090e-3
0.801, 2.059e-3
0.800, 2.028e-3
0.799, 1.998e-3
0.798, 1.968e-3
0.797, 1.937e-3
0.796, 1.908e-3
0.795, 1.881e-3
0.794, 1.854e-3
0.793, 1.824e-3
0.792, 1.797e-3
0.791, 1.770e-3
0.790, 1.741e-3
0.789, 1.715e-3
0.788, 1.688e-3
0.787, 1.661e-3
0.786, 1.634e-3
0.785, 1.608e-3
0.784, 1.583e-3
0.783, 1.556e-3
0.782, 1.532e-3
0.781, 1.507e-3
0.780, 1.481e-3
0.779, 1.454e-3
0.778, 1.430e-3
0.777, 1.406e-3
0.776, 1.381e-3
0.775, 1.358e-3
0.774, 1.334e-3
0.773, 1.311e-3
0.772, 1.288e-3
0.771, 1.265e-3
0.770, 1.241e-3
0.769, 1.219e-3
0.768, 1.196e-3
0.767, 1.173e-3
0.766, 1.151e-3
0.765, 1.130e-3
0.764, 1.109e-3
0.763, 1.089e-3
0.762, 1.069e-3
0.761, 1.049e-3
0.760, 1.029e-3
0.759, 1.010e-3
0.758, 9.902e-4
0.757, 9.703e-4
0.756, 9.508e-4
0.755, 9.317e-4
0.754, 9.159e-4
0.753, 8.972e-4
0.752, 8.795e-4
0.751, 8.609e-4
0.750, 8.427e-4
0.749, 8.258e-4
0.748, 8.093e-4
0.747, 7.914e-4
0.746, 7.740e-4
0.745, 7.585e-4
0.744, 7.419e-4
0.743, 7.247e-4
0.742, 7.089e-4
0.741, 6.925e-4
0.740, 6.783e-4
0.739, 6.621e-4
0.738, 6.473e-4
0.737, 6.331e-4
0.736, 6.190e-4
0.735, 6.039e-4
0.734, 5.901e-4
0.733, 5.758e-4
0.732, 5.627e-4
0.731, 5.503e-4
0.730, 5.380e-4
0.729, 5.248e-4
0.728, 5.112e-4
0.727, 4.990e-4
0.726, 4.852e-4
0.725, 4.745e-4
0.724, 4.623e-4
0.723, 4.507e-4
0.722, 4.400e-4
0.721, 4.295e-4
0.720, 4.193e-4
0.719, 4.086e-4
0.718, 3.976e-4
0.717, 3.879e-4
0.716, 3.783e-4
0.715, 3.673e-4
0.714, 3.581e-4
0.713, 3.502e-4
0.712, 3.398e-4
0.711, 3.315e-4
0.710, 3.232e-4
0.709, 3.146e-4
0.708, 3.077e-4
0.707, 2.999e-4
0.706, 2.922e-4
0.705, 2.851e-4
0.704, 2.776e-4
0.703, 2.693e-4
0.702, 2.631e-4
0.701, 2.555e-4
0.700, 2.487e-4
0.699, 2.433e-4
0.698, 2.368e-4
0.697, 2.309e-4
0.696, 2.232e-4
0.695, 2.179e-4
0.694, 2.134e-4
0.693, 2.075e-4
0.692, 2.023e-4
0.691, 1.968e-4
0.690, 1.917e-4
0.689, 1.865e-4
0.688, 1.821e-4
0.687, 1.776e-4
0.686, 1.735e-4
0.685, 1.687e-4
0.684, 1.649e-4
0.683, 1.615e-4
0.682, 1.577e-4
0.681, 1.535e-4
0.680, 1.497e-4
0.679, 1.468e-4
0.678, 1.419e-4
0.677, 1.382e-4
0.676, 1.349e-4
0.675, 1.326e-4
0.674, 1.291e-4
0.673, 1.262e-4
0.672, 1.230e-4
0.671, 1.207e-4
0.670, 1.184e-4
0.669, 1.166e-4
0.668, 1.129e-4
0.667, 1.097e-4
0.666, 1.083e-4
0.665, 1.040e-4
0.664, 1.038e-4
0.663, 1.010e-4
0.662, 9.989e-5
0.661, 9.684e-5
0.660, 9.418e-5
0.659, 9.329e-5
0.658, 9.014e-5
0.657, 9.093e-5
0.656, 8.837e-5
0.655, 8.561e-5
0.654, 8.600e-5
0.653, 8.344e-5
0.652, 8.127e-5
0.651, 8.019e-5
0.650, 8.078e-5
0.649, 7.782e-5
0.648, 7.605e-5
0.647, 7.467e-5
0.646, 7.507e-5
0.645, 7.241e-5
0.644, 7.270e-5
0.643, 7.083e-5
0.642, 7.083e-5
0.641, 6.807e-5
0.640, 6.797e-5
0.639, 6.758e-5
0.638, 6.620e-5
0.637, 6.590e-5
0.636, 6.472e-5
0.635, 6.482e-5
0.634, 6.206e-5
0.633, 6.295e-5
0.632, 6.344e-5
0.631, 6.167e-5
0.630, 6.088e-5
0.629, 6.039e-5
0.628, 5.891e-5
0.627, 5.852e-5
0.626, 5.842e-5
0.625, 5.773e-5
0.624, 5.733e-5
0.623, 5.793e-5
0.622, 5.507e-5
0.621, 5.674e-5
0.620, 5.704e-5
0.619, 5.576e-5
0.618, 5.467e-5
0.617, 5.477e-5
0.616, 5.320e-5
0.615, 5.379e-5
0.614, 5.290e-5
0.613, 5.310e-5
0.612, 5.241e-5
0.611, 5.201e-5
0.610, 5.221e-5
0.609, 5.152e-5
0.608, 5.004e-5
0.607, 5.192e-5
0.606, 5.014e-5
0.605, 4.955e-5
0.604, 5.083e-5
0.603, 4.886e-5
0.602, 4.926e-5
0.601, 4.926e-5
0.600, 4.926e-5
0.599, 4.857e-5
0.598, 4.827e-5
0.597, 4.817e-5
0.596, 4.788e-5
0.595, 4.738e-5
0.594, 4.876e-5
0.593, 4.788e-5
0.592, 4.719e-5
0.591, 4.689e-5
0.590, 4.719e-5
0.589, 4.640e-5
0.588, 4.679e-5
0.587, 4.719e-5
0.586, 4.738e-5
0.585, 4.719e-5
0.584, 4.571e-5
0.583, 4.591e-5
0.582, 4.591e-5
0.581, 4.620e-5
0.580, 4.591e-5
0.579, 4.660e-5
0.578, 4.561e-5
0.577, 4.699e-5
0.576, 4.601e-5
0.575, 4.512e-5
0.574, 4.541e-5
0.573, 4.591e-5
0.572, 4.472e-5
0.571, 4.492e-5
0.570, 4.404e-5
0.569, 4.502e-5
0.568, 4.413e-5
0.567, 4.571e-5
0.566, 4.443e-5
0.565, 4.512e-5
0.564, 4.610e-5
0.563, 4.413e-5
0.562, 4.482e-5
0.561, 4.335e-5
0.560, 4.433e-5
0.559, 4.423e-5
0.558, 4.413e-5
0.557, 4.492e-5
0.556, 4.423e-5
0.555, 4.423e-5
0.554, 4.394e-5
0.553, 4.561e-5
0.552, 4.404e-5
0.551, 4.423e-5
0.550, 4.384e-5
0.549, 4.354e-5
0.548, 4.453e-5
0.547, 4.335e-5
0.546, 4.404e-5
0.545, 4.384e-5
0.544, 4.374e-5
0.543, 4.384e-5
0.542, 4.394e-5
0.541, 4.325e-5
0.540, 4.354e-5
0.539, 4.384e-5
0.538, 4.325e-5
0.537, 4.315e-5
0.536, 4.344e-5
0.535, 4.344e-5
0.534, 4.404e-5
0.533, 4.206e-5
0.532, 4.325e-5
0.531, 4.354e-5
0.530, 4.295e-5
0.529, 4.384e-5
0.528, 4.404e-5
0.527, 4.335e-5
0.526, 4.246e-5
0.525, 4.423e-5
0.524, 4.325e-5
0.523, 4.266e-5
0.522, 4.266e-5
0.521, 4.256e-5
0.520, 4.315e-5
0.519, 4.344e-5
0.518, 4.266e-5
0.517, 4.266e-5
0.516, 4.285e-5
0.515, 4.354e-5
0.514, 4.256e-5
0.513, 4.236e-5
0.512, 4.315e-5
0.511, 4.335e-5
0.510, 4.206e-5
0.509, 4.325e-5
0.508, 4.187e-5
0.507, 4.364e-5
0.506, 4.315e-5
0.505, 4.197e-5
0.504, 4.256e-5
0.503, 4.325e-5
0.502, 4.138e-5
0.501, 4.266e-5
0.500, 4.236e-5
0.499, 4.147e-5
0.498, 4.285e-5
0.497, 4.177e-5
0.496, 4.236e-5
0.495, 4.305e-5
0.494, 4.266e-5
0.493, 4.266e-5
0.492, 4.167e-5
0.491, 4.216e-5
0.490, 4.354e-5
0.489, 4.226e-5
0.488, 4.246e-5
0.487, 4.197e-5
0.486, 4.167e-5
0.485, 4.216e-5
0.484, 4.157e-5
0.483, 4.177e-5
0.482, 4.197e-5
0.481, 4.138e-5
0.480, 4.305e-5
0.479, 4.256e-5
0.478, 4.335e-5
0.477, 4.216e-5
0.476, 4.226e-5
0.475, 4.177e-5
0.474, 4.167e-5
0.473, 4.197e-5
0.472, 4.275e-5
0.471, 4.177e-5
0.470, 4.315e-5
0.469, 4.118e-5
0.468, 4.266e-5
0.467, 4.197e-5
0.466, 4.206e-5
0.465, 4.275e-5
0.464, 4.197e-5
0.463, 4.177e-5
0.462, 4.187e-5
0.461, 4.236e-5
0.460, 4.236e-5
0.459, 4.138e-5
0.458, 4.216e-5
0.457, 4.147e-5
0.456, 4.364e-5
0.455, 4.187e-5
0.454, 4.177e-5
0.453, 4.206e-5
0.452, 4.177e-5
0.451, 4.236e-5
0.450, 4.226e-5
0.449, 4.226e-5
0.448, 4.216e-5
0.447, 4.118e-5
0.446, 4.226e-5
0.445, 4.325e-5
0.444, 4.187e-5
0.443, 4.315e-5
0.442, 4.236e-5
0.441, 4.138e-5
0.440, 4.226e-5
0.439, 4.344e-5
0.438, 4.266e-5
0.437, 4.246e-5
0.436, 4.275e-5
0.435, 4.118e-5
0.434, 4.246e-5
0.433, 4.275e-5
0.432, 4.206e-5
0.431, 4.216e-5
0.430, 4.354e-5
0.429, 4.354e-5
0.428, 4.226e-5
0.427, 4.325e-5
0.426, 4.354e-5
0.425, 4.315e-5
0.424, 4.354e-5
0.423, 4.187e-5
0.422, 4.275e-5
0.421, 4.354e-5
0.420, 4.394e-5
0.419, 4.384e-5
0.418, 4.354e-5
0.417, 4.236e-5
0.416, 4.374e-5
0.415, 4.246e-5
0.414, 4.295e-5
0.413, 4.354e-5
0.412, 4.413e-5
0.411, 4.177e-5
0.410, 4.344e-5
0.409, 4.118e-5
0.408, 4.275e-5
0.407, 4.236e-5
0.406, 4.216e-5
0.405, 4.256e-5
0.404, 4.315e-5
0.403, 4.325e-5
0.402, 4.197e-5
0.401, 4.354e-5
0.400, 4.354e-5
0.399, 4.246e-5
0.398, 4.246e-5
0.397, 4.285e-5
0.396, 4.275e-5
0.395, 4.236e-5
0.394, 4.305e-5
0.393, 4.394e-5
0.392, 4.325e-5
0.391, 4.246e-5
0.390, 4.275e-5
0.389, 4.285e-5
0.388, 4.206e-5
0.387, 4.354e-5
0.386, 4.453e-5
0.385, 4.295e-5
0.384, 4.246e-5
0.383, 4.275e-5
0.382, 4.384e-5
0.381, 4.305e-5
0.380, 4.354e-5
0.379, 4.335e-5
0.378, 4.335e-5
0.377, 4.108e-5
0.376, 4.404e-5
0.375, 4.266e-5
0.374, 4.374e-5
0.373, 4.423e-5
0.372, 4.315e-5
0.371, 4.413e-5
0.370, 4.335e-5
0.369, 4.423e-5
0.368, 4.423e-5
0.367, 4.404e-5
0.366, 4.443e-5
0.365, 4.384e-5
0.364, 4.374e-5
0.363, 4.275e-5
0.362, 4.394e-5
0.361, 4.295e-5
0.360, 4.364e-5
0.359, 4.433e-5
0.358, 4.394e-5
0.357, 4.305e-5
0.356, 4.325e-5
0.355, 4.325e-5
0.354, 4.404e-5
0.353, 4.364e-5
0.352, 4.404e-5
0.351, 4.354e-5
0.350, 4.275e-5
0.349, 4.433e-5
0.348, 4.472e-5
0.347, 4.472e-5
0.346, 4.374e-5
0.345, 4.472e-5
0.344, 4.433e-5
0.343, 4.394e-5
0.342, 4.413e-5
0.341, 4.404e-5
0.340, 4.433e-5
0.339, 4.472e-5
0.338, 4.364e-5
0.337, 4.443e-5
0.336, 4.482e-5
0.335, 4.591e-5
0.334, 4.492e-5
0.333, 4.433e-5
0.332, 4.463e-5
0.331, 4.354e-5
0.330, 4.394e-5
0.329, 4.453e-5
0.328, 4.492e-5
0.327, 4.532e-5
0.326, 4.335e-5
0.325, 4.374e-5
0.324, 4.453e-5
0.323, 4.443e-5
0.322, 4.620e-5
0.321, 4.463e-5
0.320, 4.394e-5
0.319, 4.482e-5
0.318, 4.453e-5
0.317, 4.443e-5
0.316, 4.492e-5
0.315, 4.541e-5
0.314, 4.413e-5
0.313, 4.364e-5
0.312, 4.423e-5
0.311, 4.433e-5
0.310, 4.453e-5
0.309, 4.404e-5
0.308, 4.423e-5
0.307, 4.394e-5
0.306, 4.413e-5
0.305, 4.443e-5
0.304, 4.354e-5
0.303, 4.404e-5
0.302, 4.423e-5
0.301, 4.413e-5
0.300, 4.344e-5
0.299, 4.384e-5
0.298, 4.423e-5
0.297, 4.315e-5
0.296, 4.384e-5
0.295, 4.522e-5
0.294, 4.433e-5
0.293, 4.384e-5
0.292, 4.433e-5
0.291, 4.443e-5
0.290, 4.413e-5
0.289, 4.502e-5
0.288, 4.384e-5
0.287, 4.364e-5
0.286, 4.344e-5
0.285, 4.394e-5
0.284, 4.492e-5
0.283, 4.482e-5
0.282, 4.472e-5
0.281, 4.325e-5
0.280, 4.443e-5
0.279, 4.423e-5
0.278, 4.482e-5
0.277, 4.512e-5
0.276, 4.384e-5
0.275, 4.492e-5
0.274, 4.325e-5
0.273, 4.443e-5
0.272, 4.404e-5
0.271, 4.433e-5
0.270, 4.433e-5
0.269, 4.413e-5
0.268, 4.335e-5
0.267, 4.453e-5
0.266, 4.423e-5
0.265, 4.463e-5
0.264, 4.354e-5
0.263, 4.384e-5
0.262, 4.463e-5
0.261, 4.463e-5
0.260, 4.433e-5
0.259, 4.443e-5
0.258, 4.404e-5
0.257, 4.335e-5
0.256, 4.335e-5
0.255, 4.374e-5
0.254, 4.394e-5
0.253, 4.354e-5
0.252, 4.404e-5
0.251, 4.384e-5
0.250, 4.433e-5
0.249, 4.492e-5
0.248, 4.364e-5
0.247, 4.374e-5
0.246, 4.364e-5
0.245, 4.374e-5
0.244, 4.443e-5
0.243, 4.404e-5
0.242, 4.522e-5
0.241, 4.266e-5
0.240, 4.404e-5
0.239, 4.384e-5
0.238, 4.404e-5
0.237, 4.413e-5
0.236, 4.433e-5
0.235, 4.394e-5
0.234, 4.374e-5
0.233, 4.325e-5
0.232, 4.394e-5
0.231, 4.374e-5
0.230, 4.394e-5
0.229, 4.354e-5
0.228, 4.295e-5
0.227, 4.413e-5
0.226, 4.354e-5
0.225, 4.364e-5
0.224, 4.335e-5
0.223, 4.404e-5
0.222, 4.226e-5
0.221, 4.354e-5
0.220, 4.423e-5
0.219, 4.374e-5
0.218, 4.443e-5
0.217, 4.325e-5
0.216, 4.413e-5
0.215, 4.344e-5
0.214, 4.344e-5
0.213, 4.315e-5
0.212, 4.305e-5
0.211, 4.364e-5
0.210, 4.354e-5
0.209, 4.374e-5
0.208, 4.433e-5
0.207, 4.374e-5
0.206, 4.256e-5
0.205, 4.206e-5
0.204, 4.197e-5
0.203, 4.177e-5
0.202, 4.275e-5
0.201, 4.147e-5
0.200, 4.325e-5
0.199, 4.295e-5
0.198, 4.315e-5
0.197, 4.305e-5
0.196, 4.275e-5
0.195, 4.246e-5
0.194, 4.305e-5
0.193, 4.256e-5
0.192, 4.325e-5
0.191, 4.344e-5
0.190, 4.197e-5
0.189, 4.236e-5
0.188, 4.384e-5
0.187, 4.256e-5
0.186, 4.315e-5
0.185, 4.305e-5
0.184, 4.266e-5
0.183, 4.246e-5
0.182, 4.197e-5
0.181, 4.295e-5
0.180, 4.275e-5
0.179, 4.177e-5
0.178, 4.384e-5
0.177, 4.344e-5
0.176, 4.335e-5
0.175, 4.216e-5
0.174, 4.364e-5
0.173, 4.315e-5
0.172, 4.236e-5
0.171, 4.236e-5
0.170, 4.216e-5
0.169, 4.285e-5
0.168, 4.246e-5
0.167, 4.315e-5
0.166, 4.216e-5
0.165, 4.335e-5
0.164, 4.354e-5
0.163, 4.187e-5
0.162, 4.256e-5
0.161, 4.236e-5
0.160, 4.285e-5
0.159, 4.266e-5
0.158, 4.295e-5
0.157, 4.206e-5
0.156, 4.226e-5
0.155, 4.197e-5
0.154, 4.285e-5
0.153, 4.246e-5
0.152, 4.266e-5
0.151, 4.285e-5
0.150, 4.335e-5
0.149, 4.275e-5
0.148, 4.187e-5
0.147, 4.206e-5
0.146, 4.246e-5
0.145, 4.325e-5
0.144, 4.256e-5
0.143, 4.226e-5
0.142, 4.246e-5
0.141, 4.256e-5
0.140, 4.206e-5
0.139, 4.246e-5
0.138, 4.384e-5
0.137, 4.197e-5
0.136, 4.206e-5
0.135, 4.216e-5
0.134, 4.275e-5
0.133, 4.374e-5
0.132, 4.069e-5
0.131, 4.226e-5
0.130, 4.305e-5
0.129, 4.374e-5
0.128, 4.275e-5
0.127, 4.344e-5
0.126, 4.177e-5
0.125, 4.197e-5
0.124, 4.118e-5
0.123, 4.295e-5
0.122, 4.285e-5
0.121, 4.275e-5
0.120, 4.305e-5
0.119, 4.364e-5
0.118, 4.305e-5
0.117, 4.275e-5
0.116, 4.315e-5
0.115, 4.305e-5
0.114, 4.295e-5
0.113, 4.256e-5
0.112, 4.256e-5
0.111, 4.315e-5
0.110, 4.344e-5
0.109, 4.246e-5
0.108, 4.266e-5
0.107, 4.325e-5
0.106, 4.315e-5
0.105, 4.404e-5
0.104, 4.374e-5
0.103, 4.285e-5
0.102, 4.177e-5
0.101, 4.197e-5
0.100, 4.246e-5
0.099, 4.325e-5
0.098, 4.285e-5
0.097, 4.315e-5
0.096, 4.295e-5
0.095, 4.275e-5
0.094, 4.423e-5
0.093, 4.256e-5
0.092, 4.364e-5
0.091, 4.374e-5
0.090, 4.305e-5
0.089, 4.364e-5
0.088, 4.315e-5
0.087, 4.325e-5
0.086, 4.423e-5
0.085, 4.413e-5
0.084, 4.404e-5
0.083, 4.413e-5
0.082, 4.404e-5
0.081, 4.374e-5
0.080, 4.433e-5
0.079, 4.315e-5
0.078, 4.394e-5
0.077, 4.384e-5
0.076, 4.404e-5
0.075, 4.354e-5
0.074, 4.374e-5
0.073, 4.472e-5
0.072, 4.374e-5
0.071, 4.394e-5
0.070, 4.404e-5
0.069, 4.522e-5
0.068, 4.502e-5
0.067, 4.374e-5
0.066, 4.423e-5
0.065, 4.433e-5
0.064, 4.384e-5
0.063, 4.404e-5
0.062, 4.404e-5
0.061, 4.453e-5
0.060, 4.354e-5
0.059, 4.482e-5
0.058, 4.522e-5
0.057, 4.374e-5
0.056, 4.492e-5
0.055, 4.413e-5
0.054, 4.463e-5
0.053, 4.512e-5
0.052, 4.591e-5
0.051, 4.541e-5
0.050, 4.453e-5
0.049, 4.512e-5
0.048, 4.610e-5
0.047, 4.502e-5
0.046, 4.492e-5
0.045, 4.512e-5
0.044, 4.561e-5
0.043, 4.561e-5
0.042, 4.482e-5
0.041, 4.591e-5
0.040, 4.610e-5
0.039, 4.551e-5
0.038, 4.551e-5
0.037, 4.551e-5
0.036, 4.620e-5
0.035, 4.551e-5
0.034, 4.571e-5
0.033, 4.433e-5
0.032, 4.610e-5
0.031, 4.561e-5
0.030, 4.472e-5
0.029, 4.561e-5
0.028, 4.591e-5
0.027, 4.463e-5
0.026, 4.532e-5
0.025, 4.689e-5
0.024, 4.512e-5
0.023, 4.581e-5
0.022, 4.571e-5
0.021, 4.640e-5
0.020, 4.522e-5
0.019, 4.581e-5
0.018, 4.472e-5
0.017, 4.650e-5
0.016, 4.601e-5
0.015, 4.561e-5
0.014, 4.630e-5
0.013, 4.591e-5
0.012, 4.630e-5
0.011, 4.610e-5
0.010, 4.640e-5
0.009, 4.640e-5
0.008, 4.512e-5
0.007, 4.561e-5
0.006, 4.502e-5
0.005, 4.669e-5
0.004, 4.640e-5
0.003, 4.492e-5
0.002, 4.601e-5
0.001, 4.610e-5
